Actual Point Number,Total Frequency /MHz,Detuning (MHz),Total Frequency (Detuning),Mean tau/us,Corrected Tau (us),tau std. dev./us,tau rel. std. dev./%,Alpha - Uncorrected,Alpha - Corrected,Cavity Temperature Side 2 /C,Cavity Pressure /Torr
0.0,394395527.4552601,0.0,394395526.00121075,11.3572737621,11.281142865484199,0.0114142238,0.1005014407,2.937008495042871,2.956828923944623,24.7260129656,34.973163754299996
1.0,394395727.93542,198.9782204954236,394395724.9794313,11.361637828,11.285461893242347,0.0065983027,0.0580752777,2.9358803743603374,2.9556973241643556,24.7260129656,34.973163754299996
2.0,394395926.16557866,397.9564409908472,394395923.95765173,11.3656777589,11.289460128661347,0.0062618284,0.055094192300000004,2.9348368154899656,2.9546505448148883,24.7260129656,34.973163754299996
3.0,394396126.64573854,596.9346614862709,394396122.93587226,11.3730695159,11.296775590333514,0.0066451647,0.0584289462,2.9329293620496766,2.9527371994852936,24.7260129656,34.973163754299996
4.0,394396322.62589854,795.9128819816945,394396321.9140927,11.3738848214,11.297582480023728,0.0065732701000000004,0.05779265559999999,2.9327191231139436,2.952526310721402,24.7260129656,34.973163754299996
5.0,394396523.10605866,994.891102477118,394396520.89231324,11.3731151645,11.296820767738561,0.0071708069999999995,0.0630505093,2.932917590066597,2.9527253911183915,24.7260129656,34.973163754299996
6.0,394396719.08621866,1193.8693229725418,394396719.8705337,11.3743126931,11.29800593507428,0.0064715179,0.0568959026,2.9326088019410794,2.9524156485226616,24.7260129656,34.973163754299996
7.0,394396919.56637853,1392.8475434679654,394396918.8487542,11.3748116853,11.29849977645895,0.0066637717,0.0585835779,2.9324801537525818,2.9522866026262298,24.7260129656,34.973163754299996
8.0,394397118.9256688,1591.825763963389,394397117.8269747,11.3715460192,11.295267819328718,0.0063492424,0.05583447,2.933322299667558,2.9531313514085045,24.7260129656,34.973163754299996
9.0,394397319.4058288,1790.8039844588125,394397316.8051952,11.372642590999998,11.29635307223207,0.0062326536,0.054803916900000006,2.933039463159826,2.952847640873555,24.7260129656,34.973163754299996
10.0,394397517.63379526,1989.782204954236,394397515.7834157,11.3766321913,11.300301490092162,0.006511599,0.057236614000000005,2.932010893814753,2.9518158917318553,24.7260129656,34.973163754299996
11.0,394397718.11395526,2188.7604254496596,394397714.7616362,11.3726405255,11.296351028052484,0.0064317376,0.0565544791,2.933039995858718,2.9528481752187483,24.7260129656,34.973163754299996
12.0,394397916.56569654,2387.7386459450836,394397913.7398567,11.375094987899999,11.298780154669611,0.0062850049,0.0552523288,2.932407118823828,2.95221334190041,24.7260129656,34.973163754299996
13.0,394398114.04585654,2586.716866440507,394398112.7180772,11.3732936748,11.296997435412798,0.0064304078,0.0565395391,2.9328715562602214,2.9526792150321794,24.7260129656,34.973163754299996
14.0,394398310.2735834,2785.6950869359307,394398311.6962977,11.376297969300001,11.299970718170664,0.006599381800000001,0.058009924000000004,2.932097032780838,2.9519022970720785,24.7260129656,34.973163754299996
15.0,394398510.75374347,2984.6733074313543,394398510.67451817,11.374257679600001,11.297951489445412,0.006842074599999999,0.0601540318,2.932622985994129,2.9524298764228973,24.7260129656,34.973163754299996
16.0,394398709.38826936,3183.651527926778,394398709.6527387,11.3739973364,11.29769383360501,0.0063788243000000005,0.0560825198,2.932690111774977,2.95249720970456,24.7260129656,34.973163754299996
17.0,394398908.98590714,3382.6297484222014,394398908.63095915,11.3725129997,11.296224818592398,0.0075523706,0.0664089862,2.933072885535073,2.952881166539291,24.7260129656,34.973163754299996
18.0,394399109.46606714,3581.607968917625,394399107.6091797,11.371625203399999,11.295346186189342,0.0066156887,0.05817716059999999,2.933301874022544,2.953110862648868,24.7260129656,34.973163754299996
19.0,394399307.2848285,3780.5861894130485,394399306.58740014,11.371442933199999,11.295165797381113,0.0065610189,0.0576973291,2.9333488912324417,2.9531580251393206,24.7260129656,34.973163754299996
20.0,394399507.0149885,3979.564409908472,394399505.56562066,11.37263361,11.296344183935345,0.006755075300000001,0.059397634299999995,2.9330417793891463,2.9528499642611568,24.7260129656,34.973163754299996
21.0,394399704.4951485,4178.542630403896,394399704.5438411,11.369179566300001,11.292925792533758,0.0063113223999999996,0.055512558,2.933932859912666,2.953743797897669,24.7260129656,34.973163754299996
22.0,394399904.9753085,4377.520850899319,394399903.52206165,11.371244538,11.294969450009498,0.0063192353,0.055572063899999996,2.9334000696534144,2.953209361693949,24.7260129656,34.973163754299996
23.0,394400104.7054336,4576.499071394743,394400102.50028217,11.3707366869,11.294466840904713,0.006872450699999999,0.0604398013,2.933531084071664,2.953340780904296,24.7260129656,34.973163754299996
24.0,394400302.31448525,4775.477291890167,394400301.47850263,11.369357591099998,11.29310197982202,0.0065942961999999996,0.0580006054,2.933886919514855,2.95369771559797,24.7260129656,34.973163754299996
25.0,394400501.571727,4974.455512385591,394400500.45672315,11.369811778099999,11.293551478836498,0.0066039694,0.058083365899999996,2.933769720274945,2.953580154331727,24.7260129656,34.973163754299996
26.0,394400699.4843195,5173.433732881014,394400699.4349436,11.370843443900002,11.29457249597131,0.0072648113,0.0638898193,2.9335035421413327,2.953313153881051,24.7260129656,34.973163754299996
27.0,394400899.9644795,5372.411953376438,394400898.41316414,11.363243927200001,11.287051416435395,0.0062528076,0.055026606900000004,2.9354654122992594,2.955281081757455,24.7260129656,34.973163754299996
28.0,394401098.52966857,5571.390173871861,394401097.3913846,11.3653891872,11.289174535342973,0.0069861939,0.0614690246,2.9349113321506026,2.954725291507048,24.7260129656,34.973163754299996
29.0,394401299.00982857,5770.368394367285,394401296.3696051,11.3662832897,11.290059409668848,0.0063428988,0.055804510999999994,2.934680464109355,2.954493710745991,24.7260129656,34.973163754299996
30.0,394401494.98998857,5969.3466148627085,394401495.3478256,11.3672520553,11.291018176352885,0.006399974399999999,0.056301860499999995,2.9344303581499913,2.9542428325617727,24.7260129656,34.973163754299996
31.0,394401695.47014856,6168.324835358132,394401694.3260461,11.363761930299999,11.287564073319949,0.006091259200000001,0.0536024883,2.9353316027216887,2.9551468592465118,24.7260129656,34.973163754299996
32.0,394401894.0456294,6367.303055853556,394401893.30426663,11.3675937668,11.291356360914763,0.0065292305,0.057437225700000004,2.934342148752304,2.954154350781012,24.7260129656,34.973163754299996
33.0,394402094.52578926,6566.281276348979,394402092.2824871,11.367662980499999,11.291424860230993,0.0066597549,0.0585850843,2.934324282575454,2.9541364294331247,24.7260129656,34.973163754299996
34.0,394402290.50594926,6765.259496844403,394402291.2607076,11.3653301483,11.289116105788732,0.0061385641000000005,0.0540113132,2.9349265779845894,2.9547405844033268,24.7260129656,34.973163754299996
35.0,394402489.9010804,6964.237717339826,394402490.2389281,11.3656864371,11.289468717292461,0.005815548100000001,0.051167592000000005,2.934834574613359,2.9546482970205736,24.7260129656,34.973163754299996
36.0,394402687.7269724,7163.21593783525,394402689.2171486,11.3664057248,11.290180581087593,0.0065609820999999995,0.0577225748,2.9346488527183148,2.954462001758519,24.7260129656,34.973163754299996
37.0,394402888.2071324,7362.194158330673,394402888.19536906,11.363627185999999,11.287430719695054,0.0061646706999999995,0.054249146399999996,2.935366408439582,2.95518177237737,24.7260129656,34.973163754299996
38.0,394403088.6872924,7561.172378826097,394403087.1735896,11.3636507308,11.287454021493003,0.006871182900000001,0.0604663329,2.9353603265371495,2.9551756717059137,24.7260129656,34.973163754299996
39.0,394403289.1674524,7760.1505993215205,394403286.15181005,11.3632867579,11.287093805089047,0.0065855586,0.0579546991,2.935454347891478,2.9552699832064566,24.7260129656,34.973163754299996
40.0,394403486.8976124,7959.128819816944,394403485.1300306,11.3607835581,11.284616439819375,0.0070225586,0.061814033899999996,2.936101136794635,2.9559187676164487,24.7260129656,34.973163754299996
41.0,394403685.7277724,8158.107040312369,394403684.10825104,11.3623319253,11.28614882704507,0.0070718406000000004,0.062239341600000005,2.9357010285487233,2.9555174250301426,24.7260129656,34.973163754299996
42.0,394403884.7863516,8357.085260807791,394403883.08647156,11.3642217489,11.288019146183197,0.006384354300000001,0.0561794239,2.935212833473963,2.955027723450838,24.7260129656,34.973163754299996
43.0,394404082.4366535,8556.063481303216,394404082.0646921,11.3625482462,11.286362915370205,0.0063920905,0.0562557831,2.935645138490009,2.9554613625253143,24.7260129656,34.973163754299996
44.0,394404280.4367049,8755.041701798638,394404281.04291254,11.3616530279,11.285476936271088,0.0066328324,0.0583791145,2.93587644666707,2.9556933843539204,24.7260129656,34.973163754299996
45.0,394404480.91686493,8954.019922294063,394404480.02113307,11.362145121600001,11.285963951277381,0.0062795544,0.0552673317,2.935749294066225,2.95556583946379,24.7260129656,34.973163754299996
46.0,394404681.0435076,9152.998142789485,394404678.9993535,11.3608740117,11.284705959899695,0.0066692847999999996,0.0587039766,2.936077759991273,2.9558953187036963,24.7260129656,34.973163754299996
47.0,394404877.0236676,9351.97636328491,394404877.97757405,11.363174708199999,11.286982911829082,0.006177177,0.054361366200000004,2.9354832937439785,2.955299018381319,24.7260129656,34.973163754299996
48.0,394405077.5038275,9550.954583780334,394405076.9557945,11.3611680373,11.28499695102198,0.0068073618999999995,0.0599177996,2.9360017746680924,2.9558190989847293,24.7260129656,34.973163754299996
49.0,394405276.2596472,9749.932804275757,394405275.93401504,11.3606395629,11.284473930708707,0.0071725342000000004,0.0631349509,2.9361383516422737,2.955956097256924,24.7260129656,34.973163754299996
50.0,394405474.2124416,9948.911024771181,394405474.9122355,11.361152726099998,11.284981797840828,0.0068601346,0.060382381299999996,2.936005731459402,2.9558230679820268,24.7260129656,34.973163754299996
51.0,394405673.4426016,10147.889245266604,394405673.890456,11.3625753157,11.286389705494566,0.0064862333,0.0570841833,2.935638144789737,2.955454347245893,24.7260129656,34.973163754299996
52.0,394405873.9227616,10346.867465762029,394405872.8686765,11.359772476500002,11.283615792930656,0.0064091262,0.0564194946,2.9363624657817504,2.9561809026423487,24.7260129656,34.973163754299996
53.0,394406074.0708765,10545.845686257451,394406071.846897,11.3598975682,11.283739593649223,0.0065019221999999995,0.057235746399999995,2.9363301314609127,2.956148468597153,24.7260129656,34.973163754299996
54.0,394406273.1777354,10744.823906752876,394406270.8251175,11.3612858226,11.285113520720644,0.007263024200000001,0.0639278366,2.9359713364012245,2.955788566820295,24.7260129656,34.973163754299996
55.0,394406472.4694121,10943.802127248298,394406469.803338,11.3603213578,11.28415900960466,0.0069536927,0.0612103521,2.9362205935233234,2.956038592811699,24.7260129656,34.973163754299996
56.0,394406668.4495721,11142.780347743723,394406668.7815585,11.3582401301,11.282099260589389,0.007172388199999999,0.0631470031,2.936758612051067,2.9565782705294716,24.7260129656,34.973163754299996
57.0,394406868.9297321,11341.758568239145,394406867.759779,11.359734755,11.283578460726664,0.0072550207999999995,0.0638661112,2.936372216361244,2.9561906832938396,24.7260129656,34.973163754299996
58.0,394407068.6598371,11540.73678873457,394407066.7379995,11.3579970527,11.281858691755252,0.0064778138,0.0570330642,2.9368214628903946,2.9566413151577557,24.7260129656,34.973163754299996
59.0,394407269.1399971,11739.715009229993,394407265.71621996,11.359184640699999,11.28303402373031,0.0066642004000000005,0.058667946500000005,2.93651442202102,2.956333327512839,24.7260129656,34.973163754299996
60.0,394407469.6201572,11938.693229725417,394407464.6944405,11.3585632829,11.282419078429664,0.0067373508999999995,0.059315168499999994,2.9366750608355856,2.9564944616875457,24.7260129656,34.973163754299996
61.0,394407665.6003172,12137.67145022084,394407663.67266095,11.3584002776,11.282257755357785,0.0070103049,0.0617191215,2.9367172052914596,2.956536736095638,24.7260129656,34.973163754299996
62.0,394407866.0804772,12336.649670716264,394407862.65088147,11.3596778077,11.2835221011377,0.0066917333,0.0589077734,2.93638693671444,2.956205449046086,24.7260129656,34.973163754299996
63.0,394408063.8986829,12535.627891211687,394408061.62910193,11.3578210163,11.28168447205064,0.0065718608999999996,0.0578619872,2.936866981082399,2.9566869736919794,24.7260129656,34.973163754299996
64.0,394408262.8788429,12734.606111707111,394408260.60732245,11.3595591528,11.283404670785787,0.0066035061,0.058131711100000004,2.9364176083887235,2.9562362153135675,24.7260129656,34.973163754299996
65.0,394408461.4703912,12933.584332202536,394408459.585543,11.356653426300001,11.280528931462872,0.0062665588000000005,0.055179625,2.937168923599241,2.956989847061144,24.7260129656,34.973163754299996
66.0,394408661.9505511,13132.562552697958,394408658.56376344,11.3576851798,11.281550037380018,0.007150859,0.06296053160000001,2.936902105645667,2.9567222065490006,24.7260129656,34.973163754299996
67.0,394408857.9307111,13331.540773193383,394408857.54198396,11.3580216225,11.281883007994594,0.0067996252,0.0598662811,2.936815109925206,2.956634942604715,24.7260129656,34.973163754299996
68.0,394409055.88420874,13530.518993688805,394409056.5202044,11.3578494765,11.281712638541727,0.0067150527,0.059122571500000005,2.9368596219584884,2.956679591878601,24.7260129656,34.973163754299996
69.0,394409256.36436874,13729.49721418423,394409255.49842495,11.35733848,11.281206915501278,0.0068732773,0.060518380499999996,2.936991758989577,2.956812136295527,24.7260129656,34.973163754299996
70.0,394409455.7809556,13928.475434679653,394409454.4766454,11.3579067271,11.281769298315877,0.0065267971,0.0574647887,2.9368448184405946,2.9566647427185546,24.7260129656,34.973163754299996
71.0,394409656.2611156,14127.453655175077,394409653.45486593,11.3576205248,11.281486049617097,0.0063460367,0.055874702400000004,2.9369188244121753,2.956738976860885,24.7260129656,34.973163754299996
72.0,394409855.24127555,14326.4318756705,394409852.4330864,11.3554672634,11.279355009441204,0.006462519599999999,0.0569110843,2.9374757327095486,2.9572976018482224,24.7260129656,34.973163754299996
73.0,394410053.71378577,14525.410096165924,394410051.4113069,11.3566068771,11.280482862641831,0.0070039276,0.061672713600000005,2.9371809626585423,2.9570019232317954,24.7260129656,34.973163754299996
74.0,394410252.6939392,14724.388316661347,394410250.38952744,11.356416944300001,11.280294889909197,0.0062969847,0.0554486925,2.937230086163525,2.9570511981609835,24.7260129656,34.973163754299996
75.0,394410450.1740992,14923.366537156771,394410449.3677479,11.354897145199999,11.278790774632585,0.0069783227,0.0614565026,2.9376232204723935,2.9574455441480447,24.7260129656,34.973163754299996
76.0,394410650.6542592,15122.344757652194,394410648.3459684,11.356780385599999,11.28065458056524,0.006440942,0.0567145067,2.93713608850885,2.956956910752586,24.7260129656,34.973163754299996
77.0,394410847.3844192,15321.322978147618,394410847.3241889,11.354870484600001,11.278764389158132,0.0068172423,0.0600380453,2.937630117847201,2.9574524627785927,24.7260129656,34.973163754299996
78.0,394411045.23478806,15520.301198643041,394411046.3024094,11.3547887078,11.278683456257717,0.0067107162,0.0591003175,2.937651274558859,2.9574736846886305,24.7260129656,34.973163754299996
79.0,394411244.3416616,15719.279419138466,394411245.2806299,11.3534071962,11.27731620108457,0.0062797075,0.0553112149,2.9380087354727875,2.9578322470560177,24.7260129656,34.973163754299996
80.0,394411444.8218215,15918.257639633888,394411444.2588504,11.3454311501,11.26942245785487,0.006663343299999999,0.058731512199999995,2.9400742094778125,2.9599040806714583,24.7269706892,34.973163754299996
81.0,394411643.8019815,16117.235860129313,394411643.23707086,11.3405071155,11.2645492285147,0.0063315053,0.0558308835,2.94135078617642,2.9611845838782362,24.7269706892,34.973163754299996
82.0,394411841.2821416,16316.214080624737,394411842.2152914,11.341406273099999,11.265439109041168,0.0068196062,0.0601301641,2.9411175930564513,2.960950673733149,24.7269706892,34.973163754299996
83.0,394412040.3880961,16515.19230112016,394412041.19351184,11.3394339932,11.263487178016996,0.0070759852,0.062401573499999995,2.9416291447896152,2.961463798255755,24.7269706892,34.973163754299996
84.0,394412240.86825615,16714.170521615582,394412240.17173237,11.3326537373,11.256776872643654,0.0064094545999999995,0.056557402300000004,2.943389103121257,2.9632291638362602,24.7269706892,34.973163754299996
85.0,394412440.14915967,16913.148742111007,394412439.1499529,11.3312303925,11.255368211348904,0.0065746086,0.058022018200000004,2.9437588297466264,2.9636000256465707,24.7269706892,34.973163754299996
87.0,394412839.24003386,17311.105183101856,394412837.1063939,11.322379507,11.246608626670104,0.011183878500000001,0.0987767499,2.946060013197118,2.9659082686236737,24.7269706892,34.973163754299996
88.0,394413038.1245067,17510.083403597277,394413036.08461434,11.317202518199998,11.241485035496549,0.0163064084,0.14408515189999999,2.947407671301489,2.9672600563437763,24.7269706892,34.973163754299996
89.0,394413234.1046668,17709.0616240927,394413235.06283486,11.309435380999998,11.233798004436768,0.0065500439,0.05791663019999999,2.949431903192481,2.969290484539704,24.7269706892,34.973163754299996
90.0,394413434.0608089,17908.039844588126,394413434.0410553,11.292078805,11.21662040305101,0.0073130146,0.0647623415,2.9539653500332803,2.973837780116192,24.7269706892,34.973163754299996
91.0,394413634.5409689,18107.01806508355,394413633.01927584,11.2710440828,11.195802524040005,0.0073654063,0.0653480389,2.959478223558564,2.979367441341628,24.7269706892,34.973163754299996
92.0,394413832.0211289,18305.99628557897,394413831.9974963,11.2351984149,11.160326233469453,0.006836675699999999,0.0608505117,2.9689203775501016,2.988838213329322,24.7269706892,34.973163754299996
93.0,394414030.9417074,18504.974506074395,394414030.9757168,11.155260878,11.08121174800391,0.0068147204,0.0610897449,2.9901953781824595,3.010177070736311,24.7269706892,34.973163754299996
94.0,394414229.61870635,18703.95272656982,394414229.9539373,10.9670359416,10.894921115031762,0.0072613076,0.06621030139999999,3.041515473956656,3.06164763999927,24.7269706892,34.973163754299996
95.0,394414430.0988662,18902.930947065244,394414428.9321578,10.4866726807,10.419470822896862,0.007821155500000001,0.0745818594,3.180838244451492,3.201353512744069,24.7269706892,34.973163754299996
96.0,394414629.0790262,19101.90916756067,394414627.91037834,9.4758551314,9.41888118663399,0.0089074723,0.09400177800000001,3.5201476866486243,3.5414407357797586,24.7269706892,34.973163754299996
97.0,394414825.0591862,19300.88738805609,394414826.8885988,7.9926471387,7.950410188484844,0.0082313425,0.1029864374,4.173386981930571,4.195558308189899,24.7269706892,34.973163754299996
98.0,394415025.53934634,19499.865608551514,394415025.8668193,6.5711212451,6.5427061663544785,0.0106631115,0.1622723294,5.076212761207024,5.0982588353652165,24.7269706892,34.973163754299996
99.0,394415223.0195062,19698.84382904694,394415224.8450398,5.716275211699999,5.696029582130231,0.008005230300000001,0.1400427723,5.83534002203773,5.856080808369047,24.7269706892,34.973163754299996
100.0,394415422.2768303,19897.822049542363,394415423.8232603,5.6163640078,5.597066210193816,0.0082295488,0.1465280525,5.939146656714177,5.95962389350762,24.7269706892,34.973163754299996
101.0,394415622.7569904,20096.800270037784,394415622.80148077,6.279167657,6.253554700998791,0.0080067421,0.1275127942,5.312234254906311,5.3339918038116245,24.7269706892,34.973163754299996
