Wavenumber (cm-1),Alpha (ppm/cm),Pressure (Torr),Temperature (C)
7797.660418,0.02093536,499.3696791,23.12190937
7797.667137,0.020546107,499.3696791,23.12190937
7797.673857,0.020154572,499.3696791,23.12190937
7797.680577,0.019822447,499.3696791,23.12190937
7797.687296,0.01964195,499.3696791,23.12190937
7797.694016,0.019351638,499.3696791,23.12190937
7797.700736,0.019127526,499.3696791,23.12190937
7797.707456,0.018970671,499.3696791,23.12190937
7797.714175,0.018783436,499.3696791,23.12190937
7797.720895,0.018678709,499.3696791,23.12190937
7797.727615,0.018431205,499.3696791,23.12190937
7797.734334,0.018237585,499.3696791,23.12190937
7797.741054,0.018058237,499.3696791,23.12190937
7797.747774,0.017819353,499.3696791,23.12190937
7797.754494,0.017721573,499.3696791,23.12190937
7797.761213,0.017535781,499.3696791,23.12190937
7797.767933,0.017389455,499.3696791,23.12190937
7797.774653,0.017242016,499.3696791,23.12190937
7797.781372,0.017089274,499.3696791,23.12190937
7797.788092,0.016945754,499.3696791,23.12190937
7797.794812,0.016787896,499.3696791,23.12190937
7797.801532,0.016744076,499.3696791,23.12190937
7797.808251,0.016571965,499.3696791,23.12190937
7797.814971,0.016554385,499.3696791,23.12190937
7797.821691,0.016431745,499.3696791,23.12190937
7797.82841,0.016310925,499.3696791,23.12190937
7797.83513,0.01625929,499.3696791,23.12190937
7797.84185,0.016187402,499.3696791,23.12190937
7797.84857,0.016053406,499.3696791,23.12190937
7797.855289,0.016032844,499.3696791,23.12190937
7797.862009,0.01592787,499.3696791,23.12190937
7797.868729,0.015976161,499.3696791,23.12190937
7797.875448,0.015933189,499.3696791,23.12190937
7797.882168,0.015794219,499.3696791,23.12190937
7797.888888,0.015788287,499.3696791,23.12190937
7797.895608,0.015718766,499.3696791,23.12190937
7797.902327,0.015645113,499.3696791,23.12190937
7797.909047,0.01562186,499.3696791,23.12190937
7797.915767,0.015593333,499.3696791,23.12190937
7797.922486,0.015564241,499.3696791,23.12190937
7797.929206,0.015514357,499.3696791,23.12190937
7797.935926,0.01549027,499.3696791,23.12190937
7797.942646,0.01542021,499.3696791,23.12190937
7797.949365,0.015351845,499.3696791,23.12190937
7797.956085,0.015355732,499.3696791,23.12190937
7797.962805,0.015367385,499.3696791,23.12190937
7797.969524,0.01532154,499.3696791,23.12190937
7797.976244,0.015269537,499.3696791,23.12190937
7797.982964,0.015237329,499.3696791,23.12190937
7797.989684,0.015245297,499.3696791,23.12190937
7797.996403,0.015230649,499.3696791,23.12190937
7798.003123,0.01521536,499.3696791,23.12190937
7798.009843,0.015199109,499.3696791,23.12190937
7798.016562,0.015117423,499.3696791,23.12190937
7798.023282,0.015084861,499.3696791,23.12190937
7798.030002,0.01512229,499.3696791,23.12190937
7798.036722,0.015074746,499.3696791,23.12190937
7798.043441,0.015043374,499.3696791,23.12190937
7798.050161,0.015057271,499.3696791,23.12190937
7798.056881,0.015090674,499.3696791,23.12190937
7798.0636,0.015023832,499.3696791,23.12190937
7798.07032,0.015049908,499.3696791,23.12190937
7798.07704,0.015002805,499.3696791,23.12190937
7798.08376,0.015009055,499.3696791,23.12190937
7798.090479,0.01498554,499.3696791,23.12190937
7798.097199,0.014925525,499.3696791,23.12190937
7798.103919,0.014782215,499.3696791,23.12190937
7798.110638,0.015078006,499.3796805,23.12182198
7798.117358,0.015001732,499.3796805,23.12182198
7798.124078,0.014978105,499.3796805,23.12182198
7798.130798,0.014994151,499.3796805,23.12182198
7798.137517,0.015028539,499.3796805,23.12182198
7798.144237,0.014954456,499.3796805,23.12182198
7798.150957,0.014926211,499.3796805,23.12182198
7798.157676,0.014971361,499.3796805,23.12182198
7798.164396,0.015015675,499.3796805,23.12182198
7798.171116,0.015045637,499.3796805,23.12182198
7798.177836,0.015103524,499.3796805,23.12182198
7798.184555,0.015011066,499.3796805,23.12182198
7798.191275,0.015072342,499.3796805,23.12182198
7798.197995,0.015089735,499.3796805,23.12182198
7798.204714,0.015050944,499.3796805,23.12182198
7798.211434,0.015048385,499.3796805,23.12182198
7798.218154,0.015129286,499.3796805,23.12182198
7798.224874,0.015145346,499.3796805,23.12182198
7798.231593,0.015093135,499.3796805,23.12182198
7798.238313,0.015011707,499.3796805,23.12182198
7798.245033,0.015028738,499.3796805,23.12182198
7798.251752,0.015103421,499.3796805,23.12182198
7798.258472,0.015069452,499.3796805,23.12182198
7798.265192,0.015116306,499.3796805,23.12182198
7798.271912,0.01507575,499.3796805,23.12182198
7798.278631,0.015049378,499.3796805,23.12182198
7798.285351,0.01516101,499.3796805,23.12182198
7798.292071,0.015096299,499.3796805,23.12182198
7798.29879,0.015136012,499.3796805,23.12182198
7798.30551,0.015023148,499.3796805,23.12182198
7798.31223,0.015040697,499.3796805,23.12182198
7798.31895,0.015051161,499.3796805,23.12182198
7798.325669,0.015006124,499.3796805,23.12182198
7798.332389,0.014987674,499.3796805,23.12182198
7798.339109,0.015027607,499.3796805,23.12182198
7798.345828,0.015074466,499.3796805,23.12182198
7798.352548,0.015053628,499.3796805,23.12182198
7798.359268,0.015069329,499.3796805,23.12182198
7798.365988,0.015067744,499.3796805,23.12182198
7798.372707,0.015154706,499.3796805,23.12182198
7798.379427,0.01508891,499.3796805,23.12182198
7798.386147,0.015160187,499.3796805,23.12182198
7798.392866,0.015115998,499.3796805,23.12182198
7798.399586,0.015032729,499.3796805,23.12182198
7798.406306,0.015067837,499.3796805,23.12182198
7798.413026,0.015048187,499.3796805,23.12182198
7798.419745,0.015066178,499.3796805,23.12182198
7798.426465,0.01507564,499.3796805,23.12182198
7798.433185,0.015031585,499.3796805,23.12182198
7798.439904,0.015044705,499.3796805,23.12182198
7798.446624,0.015115251,499.3796805,23.12182198
7798.453344,0.015098525,499.3796805,23.12182198
7798.460064,0.015138016,499.3796805,23.12182198
7798.466783,0.015171889,499.3796805,23.12182198
7798.473503,0.015323006,499.3796805,23.12182198
7798.480223,0.015278264,499.3796805,23.12182198
7798.486942,0.015226345,499.3796805,23.12182198
7798.493662,0.015307481,499.3796805,23.12182198
7798.500382,0.015292603,499.3796805,23.12182198
7798.507102,0.01541836,499.3796805,23.12182198
7798.513821,0.015349072,499.3796805,23.12182198
7798.520541,0.015356508,499.3796805,23.12182198
7798.527261,0.015365408,499.3796805,23.12182198
7798.53398,0.015438679,499.3796805,23.12182198
7798.5407,0.015438455,499.3796805,23.12182198
7798.54742,0.015379702,499.3796805,23.12182198
7798.55414,0.015402694,499.3796805,23.12182198
7798.560859,0.015288144,499.4096845,23.12180669
7798.567579,0.015371544,499.4096845,23.12180669
7798.574299,0.015320931,499.4096845,23.12180669
7798.581018,0.015406745,499.4096845,23.12180669
7798.587738,0.015359847,499.4096845,23.12180669
7798.594458,0.015496378,499.4096845,23.12180669
7798.601177,0.015538142,499.4096845,23.12180669
7798.607897,0.015587677,499.4096845,23.12180669
7798.614617,0.015683223,499.4096845,23.12180669
7798.621337,0.015769554,499.4096845,23.12180669
7798.628056,0.015873937,499.4096845,23.12180669
7798.634776,0.015961949,499.4096845,23.12180669
7798.641496,0.016124192,499.4096845,23.12180669
7798.648215,0.016213986,499.4096845,23.12180669
7798.654935,0.016421473,499.4096845,23.12180669
7798.661655,0.016496281,499.4096845,23.12180669
7798.668375,0.016715043,499.4096845,23.12180669
7798.675094,0.016873263,499.4096845,23.12180669
7798.681814,0.01706514,499.4096845,23.12180669
7798.688534,0.017368017,499.4096845,23.12180669
7798.695254,0.017608648,499.4096845,23.12180669
7798.701973,0.01792769,499.4096845,23.12180669
7798.708693,0.018268452,499.4096845,23.12180669
7798.715413,0.018649015,499.4096845,23.12180669
7798.722132,0.019113751,499.4096845,23.12180669
7798.728852,0.019594299,499.4096845,23.12180669
7798.735572,0.020230953,499.4096845,23.12180669
7798.742291,0.020839395,499.4096845,23.12180669
7798.749011,0.021835604,499.4096845,23.12180669
7798.755731,0.022907324,499.4096845,23.12180669
7798.762451,0.024244052,499.4096845,23.12180669
7798.76917,0.025963753,499.4096845,23.12180669
7798.77589,0.028019318,499.4096845,23.12180669
7798.78261,0.030721501,499.4096845,23.12180669
7798.789329,0.0343904,499.4096845,23.12180669
7798.796049,0.039315577,499.4096845,23.12180669
7798.802769,0.045915838,499.4096845,23.12180669
7798.809489,0.054992156,499.4096845,23.12180669
7798.816208,0.067445564,499.4096845,23.12180669
7798.822928,0.083942508,499.4096845,23.12180669
7798.829648,0.103602277,499.4096845,23.12180669
7798.836367,0.122267446,499.4096845,23.12180669
7798.843087,0.131874552,499.4096845,23.12180669
7798.849807,0.126618336,499.4096845,23.12180669
7798.856527,0.109908476,499.4096845,23.12180669
7798.863246,0.089832154,499.4096845,23.12180669
7798.869966,0.072241102,499.4096845,23.12180669
7798.876686,0.058611272,499.4096845,23.12180669
7798.883405,0.04852619,499.4096845,23.12180669
7798.890125,0.04126317,499.4096845,23.12180669
7798.896845,0.035935536,499.4096845,23.12180669
7798.903565,0.031906642,499.4096845,23.12180669
7798.910284,0.028930848,499.4096845,23.12180669
7798.917004,0.026594471,499.4096845,23.12180669
7798.923724,0.024776076,499.4096845,23.12180669
7798.930443,0.023321463,499.4096845,23.12180669
7798.937163,0.022153654,499.4096845,23.12180669
7798.943883,0.021247031,499.4096845,23.12180669
7798.950603,0.020484574,499.4096845,23.12180669
7798.957322,0.019760252,499.4096845,23.12180669
7798.964042,0.019115719,499.4096845,23.12180669
7798.970762,0.018748384,499.4096845,23.12180669
7798.977481,0.018357419,499.4096845,23.12180669
7798.984201,0.018027785,499.4096845,23.12180669
7798.990921,0.017696194,499.4096845,23.12180669
7798.997641,0.017470782,499.4096845,23.12180669
7799.00436,0.01724307,499.4096845,23.12180669
7799.01108,0.017063099,499.4096845,23.1217051
7799.0178,0.016859668,499.4096845,23.1217051
7799.024519,0.016609663,499.4096845,23.1217051
7799.031239,0.016472022,499.4096845,23.1217051
7799.037959,0.016301033,499.4096845,23.1217051
7799.044679,0.016246079,499.4096845,23.1217051
7799.051398,0.01603961,499.4096845,23.1217051
7799.058118,0.016012663,499.4096845,23.1217051
7799.064838,0.015940068,499.4096845,23.1217051
7799.071557,0.015858307,499.4096845,23.1217051
7799.078277,0.015749608,499.4096845,23.1217051
7799.084997,0.01572769,499.4096845,23.1217051
7799.091717,0.015712138,499.4096845,23.1217051
7799.098436,0.01560216,499.4096845,23.1217051
7799.105156,0.015541951,499.4096845,23.1217051
7799.111876,0.015509235,499.4096845,23.1217051
7799.118595,0.015465949,499.4096845,23.1217051
7799.125315,0.015463324,499.4096845,23.1217051
7799.132035,0.015425761,499.4096845,23.1217051
7799.138755,0.015322535,499.4096845,23.1217051
7799.145474,0.0153734,499.4096845,23.1217051
7799.152194,0.015269633,499.4096845,23.1217051
7799.158914,0.015379223,499.4096845,23.1217051
7799.165633,0.015231278,499.4096845,23.1217051
7799.172353,0.015276395,499.4096845,23.1217051
7799.179073,0.015291018,499.4096845,23.1217051
7799.185793,0.015235468,499.4096845,23.1217051
7799.192512,0.01517777,499.4096845,23.1217051
7799.199232,0.015137215,499.4096845,23.1217051
7799.205952,0.015150061,499.4096845,23.1217051
7799.212671,0.01515938,499.4096845,23.1217051
7799.219391,0.015201572,499.4096845,23.1217051
7799.226111,0.015078382,499.4096845,23.1217051
7799.232831,0.015080006,499.4096845,23.1217051
7799.23955,0.015087594,499.4096845,23.1217051
7799.24627,0.015152413,499.4096845,23.1217051
7799.25299,0.015108015,499.4096845,23.1217051
7799.259709,0.015108205,499.4096845,23.1217051
7799.266429,0.015046051,499.4096845,23.1217051
7799.273149,0.015074358,499.4096845,23.1217051
7799.279869,0.015082485,499.4096845,23.1217051
7799.286588,0.015076612,499.4096845,23.1217051
7799.293308,0.014972837,499.4096845,23.1217051
7799.300028,0.015004206,499.4096845,23.1217051
7799.306747,0.014917821,499.4096845,23.1217051
7799.313467,0.014907335,499.4096845,23.1217051
7799.320187,0.014878111,499.4096845,23.1217051
7799.326907,0.014913206,499.4096845,23.1217051
7799.333626,0.01495014,499.4096845,23.1217051
7799.340346,0.014886621,499.4096845,23.1217051
7799.347066,0.014877163,499.4096845,23.1217051
7799.353785,0.014849258,499.4096845,23.1217051
7799.360505,0.0148813,499.4096845,23.1217051
7799.367225,0.014867236,499.4096845,23.1217051
7799.373945,0.014764267,499.4096845,23.1217051
7799.380664,0.014756086,499.4096845,23.1217051
7799.387384,0.01474147,499.4096845,23.1217051
7799.394104,0.014702266,499.4096845,23.1217051
7799.400823,0.014689652,499.4096845,23.1217051
7799.407543,0.014678016,499.4096845,23.1217051
7799.414263,0.014684691,499.4096845,23.1217051
7799.420983,0.014744891,499.4096845,23.1217051
7799.427702,0.014655163,499.4096845,23.1217051
7799.434422,0.014664705,499.4096845,23.1217051
7799.441142,0.014692456,499.4096845,23.1217051
7799.447861,0.014673558,499.4096845,23.1217051
7799.454581,0.014636489,499.4096845,23.1217051
7799.461301,0.01478157,499.4196858,23.12157293
7799.468021,0.014709076,499.4196858,23.12157293
7799.47474,0.01477759,499.4196858,23.12157293
7799.48146,0.014771593,499.4196858,23.12157293
7799.48818,0.014693519,499.4196858,23.12157293
7799.494899,0.014686812,499.4196858,23.12157293
7799.501619,0.014708319,499.4196858,23.12157293
7799.508339,0.01462992,499.4196858,23.12157293
7799.515059,0.014667483,499.4196858,23.12157293
7799.521778,0.014709372,499.4196858,23.12157293
7799.528498,0.014735273,499.4196858,23.12157293
7799.535218,0.014705608,499.4196858,23.12157293
7799.541937,0.014660612,499.4196858,23.12157293
7799.548657,0.014698921,499.4196858,23.12157293
7799.555377,0.014607037,499.4196858,23.12157293
7799.562097,0.014634904,499.4196858,23.12157293
7799.568816,0.01461816,499.4196858,23.12157293
7799.575536,0.014708165,499.4196858,23.12157293
7799.582256,0.014708829,499.4196858,23.12157293
7799.588975,0.014672358,499.4196858,23.12157293
7799.595695,0.014664913,499.4196858,23.12157293
7799.602415,0.014665391,499.4196858,23.12157293
7799.609135,0.014648253,499.4196858,23.12157293
7799.615854,0.01470508,499.4196858,23.12157293
7799.622574,0.014729047,499.4196858,23.12157293
7799.629294,0.014753252,499.4196858,23.12157293
7799.636013,0.014906659,499.4196858,23.12157293
7799.642733,0.014910821,499.4196858,23.12157293
7799.649453,0.014981786,499.4196858,23.12157293
7799.656173,0.015010299,499.4196858,23.12157293
7799.662892,0.015060679,499.4196858,23.12157293
7799.669612,0.015048664,499.4196858,23.12157293
7799.676332,0.014955671,499.4196858,23.12157293
7799.683051,0.014789254,499.4196858,23.12157293
7799.689771,0.014876741,499.4196858,23.12157293
7799.696491,0.014948192,499.4196858,23.12157293
7799.703211,0.014805617,499.4196858,23.12157293
7799.70993,0.01486945,499.4196858,23.12157293
7799.71665,0.014803604,499.4196858,23.12157293
7799.72337,0.014854186,499.4196858,23.12157293
7799.730089,0.014761252,499.4196858,23.12157293
7799.736809,0.014808162,499.4196858,23.12157293
7799.743529,0.014695575,499.4196858,23.12157293
7799.750249,0.01470129,499.4196858,23.12157293
7799.756968,0.014694015,499.4196858,23.12157293
7799.763688,0.014688834,499.4196858,23.12157293
7799.770408,0.014689354,499.4196858,23.12157293
7799.777127,0.014665201,499.4196858,23.12157293
7799.783847,0.014750788,499.4196858,23.12157293
7799.790567,0.01471006,499.4196858,23.12157293
7799.797287,0.014741114,499.4196858,23.12157293
7799.804006,0.014763072,499.4196858,23.12157293
7799.810726,0.014735072,499.4196858,23.12157293
7799.817446,0.01479054,499.4196858,23.12157293
7799.824165,0.014812925,499.4196858,23.12157293
7799.830885,0.014818058,499.4196858,23.12157293
7799.837605,0.014813945,499.4196858,23.12157293
7799.844325,0.014826787,499.4196858,23.12157293
7799.851044,0.014769432,499.4196858,23.12157293
7799.857764,0.014883709,499.4196858,23.12157293
7799.864484,0.014795011,499.4196858,23.12157293
7799.871203,0.014839424,499.4196858,23.12157293
7799.877923,0.014834609,499.4196858,23.12157293
7799.884643,0.014878363,499.4196858,23.12157293
7799.891363,0.014862512,499.4196858,23.12157293
7799.898082,0.014795764,499.4196858,23.12157293
7799.904802,0.014845651,499.4196858,23.12157293
7799.911522,0.014860434,499.3896818,23.12157293
7799.918241,0.014798827,499.3896818,23.12157293
7799.924961,0.014802262,499.3896818,23.12157293
7799.931681,0.014876301,499.3896818,23.12157293
7799.9384,0.01478117,499.3896818,23.12157293
7799.94512,0.01475313,499.3896818,23.12157293
7799.95184,0.014742191,499.3896818,23.12157293
7799.95856,0.014796915,499.3896818,23.12157293
7799.965279,0.014775519,499.3896818,23.12157293
7799.971999,0.014863365,499.3896818,23.12157293
7799.978719,0.014873753,499.3896818,23.12157293
7799.985438,0.014910246,499.3896818,23.12157293
7799.992158,0.01493951,499.3896818,23.12157293
7799.998878,0.014997716,499.3896818,23.12157293
7800.005598,0.014984654,499.3896818,23.12157293
7800.012317,0.015013129,499.3896818,23.12157293
7800.019037,0.015007406,499.3896818,23.12157293
7800.025757,0.01500285,499.3896818,23.12157293
7800.032477,0.014982366,499.3896818,23.12157293
7800.039196,0.01499385,499.3896818,23.12157293
7800.045916,0.01497524,499.3896818,23.12157293
7800.052636,0.015004425,499.3896818,23.12157293
7800.059355,0.014957437,499.3896818,23.12157293
7800.066075,0.014911031,499.3896818,23.12157293
7800.072795,0.014963645,499.3896818,23.12157293
7800.079514,0.014850345,499.3896818,23.12157293
7800.086234,0.014835103,499.3896818,23.12157293
7800.092954,0.014779265,499.3896818,23.12157293
7800.099674,0.014859861,499.3896818,23.12157293
7800.106393,0.014868508,499.3896818,23.12157293
7800.113113,0.014875012,499.3896818,23.12157293
7800.119833,0.014919179,499.3896818,23.12157293
7800.126552,0.014879639,499.3896818,23.12157293
7800.133272,0.014995668,499.3896818,23.12157293
7800.139992,0.014964551,499.3896818,23.12157293
7800.146712,0.01503629,499.3896818,23.12157293
7800.153431,0.014977889,499.3896818,23.12157293
7800.160151,0.015053561,499.3896818,23.12157293
7800.166871,0.014981205,499.3896818,23.12157293
7800.17359,0.015059421,499.3896818,23.12157293
7800.18031,0.014943447,499.3896818,23.12157293
7800.18703,0.015015525,499.3896818,23.12157293
7800.19375,0.014956465,499.3896818,23.12157293
7800.200469,0.015029268,499.3896818,23.12157293
7800.207189,0.015041486,499.3896818,23.12157293
7800.213909,0.015041819,499.3896818,23.12157293
7800.220628,0.015083484,499.3896818,23.12157293
7800.227348,0.015077449,499.3896818,23.12157293
7800.234068,0.015080183,499.3896818,23.12157293
7800.240788,0.015126455,499.3896818,23.12157293
7800.247507,0.015002622,499.3896818,23.12157293
7800.254227,0.015152829,499.3896818,23.12157293
7800.260947,0.015152468,499.3896818,23.12157293
7800.267666,0.015123383,499.3896818,23.12157293
7800.274386,0.015175686,499.3896818,23.12157293
7800.281106,0.015204071,499.3896818,23.12157293
7800.287826,0.015230311,499.3896818,23.12157293
7800.294545,0.015188972,499.3896818,23.12157293
7800.301265,0.01525207,499.3896818,23.12157293
7800.307985,0.015299929,499.3896818,23.12157293
7800.314704,0.015384755,499.3896818,23.12157293
7800.321424,0.015441693,499.3896818,23.12157293
7800.328144,0.015480288,499.3896818,23.12157293
7800.334864,0.015564206,499.3896818,23.12157293
7800.341583,0.015607362,499.3896818,23.12157293
7800.348303,0.015602492,499.3896818,23.12157293
7800.355023,0.015627652,499.3896818,23.12157293
7800.361742,0.015683978,499.3996831,23.12152815
7800.368462,0.015758795,499.3996831,23.12152815
7800.375182,0.01574874,499.3996831,23.12152815
7800.381902,0.015907489,499.3996831,23.12152815
7800.388621,0.016056466,499.3996831,23.12152815
7800.395341,0.016045985,499.3996831,23.12152815
7800.402061,0.016189341,499.3996831,23.12152815
7800.40878,0.016105076,499.3996831,23.12152815
7800.4155,0.016265068,499.3996831,23.12152815
7800.42222,0.016375759,499.3996831,23.12152815
7800.42894,0.016530391,499.3996831,23.12152815
7800.435659,0.016764236,499.3996831,23.12152815
7800.442379,0.01685505,499.3996831,23.12152815
7800.449099,0.017040961,499.3996831,23.12152815
7800.455818,0.017228392,499.3996831,23.12152815
7800.462538,0.017466251,499.3996831,23.12152815
